v7	Id(M3)+Id(M4)
Step Information: Iq=10n  (Run: 1/8)
-9.000000000000000e-001	-7.198560e-005
-8.640000000000000e-001	-6.638865e-005
-8.280000000000000e-001	-6.093253e-005
-7.919999999999999e-001	-5.562690e-005
-7.559999999999999e-001	-5.048132e-005
-7.199999999999999e-001	-4.550526e-005
-6.839999999999998e-001	-4.070807e-005
-6.479999999999998e-001	-3.609909e-005
-6.119999999999998e-001	-3.168771e-005
-5.759999999999997e-001	-2.748365e-005
-5.399999999999997e-001	-2.349748e-005
-5.039999999999997e-001	-1.974151e-005
-4.679999999999997e-001	-1.623127e-005
-4.319999999999997e-001	-1.298760e-005
-3.959999999999997e-001	-1.003928e-005
-3.599999999999998e-001	-7.424835e-006
-3.239999999999998e-001	-5.191244e-006
-2.879999999999998e-001	-3.385047e-006
-2.519999999999998e-001	-2.032951e-006
-2.159999999999998e-001	-1.117298e-006
-1.799999999999998e-001	-5.650896e-007
-1.439999999999998e-001	-2.679023e-007
-1.079999999999998e-001	-1.215188e-007
-7.199999999999981e-002	-5.265987e-008
-3.599999999999982e-002	-1.959516e-008
1.804112415015879e-016	-1.776357e-015
3.600000000000018e-002	2.073956e-008
7.200000000000018e-002	5.874859e-008
1.080000000000002e-001	1.417823e-007
1.440000000000002e-001	3.242497e-007
1.800000000000002e-001	7.062349e-007
2.160000000000002e-001	1.438315e-006
2.520000000000002e-001	2.682791e-006
2.880000000000001e-001	4.541490e-006
3.240000000000001e-001	7.013301e-006
3.600000000000001e-001	1.001646e-005
3.960000000000001e-001	1.344168e-005
4.320000000000001e-001	1.719144e-005
4.680000000000000e-001	2.119366e-005
5.040000000000000e-001	2.539961e-005
5.400000000000000e-001	2.977677e-005
5.760000000000001e-001	3.430244e-005
6.120000000000001e-001	3.895922e-005
6.480000000000001e-001	4.373250e-005
6.840000000000002e-001	4.860912e-005
7.200000000000002e-001	5.357676e-005
7.560000000000002e-001	5.862377e-005
7.920000000000003e-001	6.373908e-005
8.280000000000003e-001	6.891226e-005
8.640000000000003e-001	7.413356e-005
9.000000000000000e-001	7.939391e-005
Step Information: Iq=100n  (Run: 2/8)
-9.000000000000000e-001	-8.803256e-005
-8.640000000000000e-001	-8.209905e-005
-8.280000000000000e-001	-7.627909e-005
-7.919999999999999e-001	-7.058275e-005
-7.559999999999999e-001	-6.501988e-005
-7.199999999999999e-001	-5.960024e-005
-6.839999999999998e-001	-5.433347e-005
-6.479999999999998e-001	-4.922912e-005
-6.119999999999998e-001	-4.429661e-005
-5.759999999999997e-001	-3.954531e-005
-5.399999999999997e-001	-3.498452e-005
-5.039999999999997e-001	-3.062371e-005
-4.679999999999997e-001	-2.647274e-005
-4.319999999999997e-001	-2.254251e-005
-3.959999999999997e-001	-1.884595e-005
-3.599999999999998e-001	-1.539971e-005
-3.239999999999998e-001	-1.222635e-005
-2.879999999999998e-001	-9.356935e-006
-2.519999999999998e-001	-6.832405e-006
-2.159999999999998e-001	-4.700750e-006
-1.799999999999998e-001	-3.005552e-006
-1.439999999999998e-001	-1.764060e-006
-1.079999999999998e-001	-9.433538e-007
-7.199999999999981e-002	-4.549271e-007
-3.599999999999982e-002	-1.793117e-007
1.804112415015879e-016	-1.421085e-014
3.600000000000018e-002	1.870950e-007
7.200000000000018e-002	4.949331e-007
1.080000000000002e-001	1.071235e-006
1.440000000000002e-001	2.089037e-006
1.800000000000002e-001	3.687379e-006
2.160000000000002e-001	5.910538e-006
2.520000000000002e-001	8.705141e-006
2.880000000000001e-001	1.196743e-005
3.240000000000001e-001	1.559208e-005
3.600000000000001e-001	1.949607e-005
3.960000000000001e-001	2.362171e-005
4.320000000000001e-001	2.793061e-005
4.680000000000000e-001	3.239664e-005
5.040000000000000e-001	3.700059e-005
5.400000000000000e-001	4.172691e-005
5.760000000000001e-001	4.656193e-005
6.120000000000001e-001	5.149304e-005
6.480000000000001e-001	5.650830e-005
6.840000000000002e-001	6.159641e-005
7.200000000000002e-001	6.674666e-005
7.560000000000002e-001	7.194902e-005
7.920000000000003e-001	7.719413e-005
8.280000000000003e-001	8.247332e-005
8.640000000000003e-001	8.777862e-005
9.000000000000000e-001	9.310273e-005
Step Information: Iq=200n  (Run: 3/8)
-9.000000000000000e-001	-9.328517e-005
-8.640000000000000e-001	-8.726101e-005
-8.280000000000000e-001	-8.134158e-005
-7.919999999999999e-001	-7.553701e-005
-7.559999999999999e-001	-6.985733e-005
-7.199999999999999e-001	-6.431239e-005
-6.839999999999998e-001	-5.891194e-005
-6.479999999999998e-001	-5.366560e-005
-6.119999999999998e-001	-4.858289e-005
-5.759999999999997e-001	-4.367324e-005
-5.399999999999997e-001	-3.894598e-005
-5.039999999999997e-001	-3.441047e-005
-4.679999999999997e-001	-3.007615e-005
-4.319999999999997e-001	-2.595302e-005
-3.959999999999997e-001	-2.205214e-005
-3.599999999999998e-001	-1.838684e-005
-3.239999999999998e-001	-1.497436e-005
-2.879999999999998e-001	-1.183820e-005
-2.519999999999998e-001	-9.010612e-006
-2.159999999999998e-001	-6.533577e-006
-1.799999999999998e-001	-4.454980e-006
-1.439999999999998e-001	-2.815403e-006
-1.079999999999998e-001	-1.624366e-006
-7.199999999999981e-002	-8.358664e-007
-3.599999999999982e-002	-3.432232e-007
1.804112415015879e-016	-4.263256e-014
3.600000000000018e-002	3.580134e-007
7.200000000000018e-002	9.123681e-007
1.080000000000002e-001	1.857466e-006
1.440000000000002e-001	3.354789e-006
1.800000000000002e-001	5.472734e-006
2.160000000000002e-001	8.174914e-006
2.520000000000002e-001	1.136347e-005
2.880000000000001e-001	1.493131e-005
3.240000000000001e-001	1.879105e-005
3.600000000000001e-001	2.288093e-005
3.960000000000001e-001	2.715974e-005
4.320000000000001e-001	3.159964e-005
4.680000000000000e-001	3.618050e-005
5.040000000000000e-001	4.088630e-005
5.400000000000000e-001	4.570313e-005
5.760000000000001e-001	5.061820e-005
6.120000000000001e-001	5.561948e-005
6.480000000000001e-001	6.069555e-005
6.840000000000002e-001	6.583560e-005
7.200000000000002e-001	7.102948e-005
7.560000000000002e-001	7.626771e-005
7.920000000000003e-001	8.154150e-005
8.280000000000003e-001	8.684275e-005
8.640000000000003e-001	9.216404e-005
9.000000000000000e-001	9.749860e-005
Step Information: Iq=500n  (Run: 4/8)
-9.000000000000000e-001	-1.006863e-004
-8.640000000000000e-001	-9.454982e-005
-8.280000000000000e-001	-8.850529e-005
-7.919999999999999e-001	-8.256325e-005
-7.559999999999999e-001	-7.673397e-005
-7.199999999999999e-001	-7.102750e-005
-6.839999999999998e-001	-6.545375e-005
-6.479999999999998e-001	-6.002245e-005
-6.119999999999998e-001	-5.474328e-005
-5.759999999999997e-001	-4.962577e-005
-5.399999999999997e-001	-4.467936e-005
-5.039999999999997e-001	-3.991342e-005
-4.679999999999997e-001	-3.533726e-005
-4.319999999999997e-001	-3.096031e-005
-3.959999999999997e-001	-2.679239e-005
-3.599999999999998e-001	-2.284427e-005
-3.239999999999998e-001	-1.912865e-005
-2.879999999999998e-001	-1.566170e-005
-2.519999999999998e-001	-1.246521e-005
-2.159999999999998e-001	-9.568904e-006
-1.799999999999998e-001	-7.011546e-006
-1.439999999999998e-001	-4.837407e-006
-1.079999999999998e-001	-3.083144e-006
-7.199999999999981e-002	-1.751389e-006
-3.599999999999982e-002	-7.763349e-007
1.804112415015879e-016	-1.136868e-013
3.600000000000018e-002	8.172532e-007
7.200000000000018e-002	1.940296e-006
1.080000000000002e-001	3.573960e-006
1.440000000000002e-001	5.801199e-006
1.800000000000002e-001	8.588507e-006
2.160000000000002e-001	1.184096e-005
2.520000000000002e-001	1.545634e-005
2.880000000000001e-001	1.935236e-005
3.240000000000001e-001	2.347120e-005
3.600000000000001e-001	2.777422e-005
3.960000000000001e-001	3.223507e-005
4.320000000000001e-001	3.683441e-005
4.680000000000000e-001	4.155663e-005
5.040000000000000e-001	4.638800e-005
5.400000000000000e-001	5.131590e-005
5.760000000000001e-001	5.632836e-005
6.120000000000001e-001	6.141406e-005
6.480000000000001e-001	6.656228e-005
6.840000000000002e-001	7.176294e-005
7.200000000000002e-001	7.700668e-005
7.560000000000002e-001	8.228480e-005
7.920000000000003e-001	8.758930e-005
8.280000000000003e-001	9.291286e-005
8.640000000000003e-001	9.824876e-005
9.000000000000000e-001	1.035909e-004
Step Information: Iq=1u  (Run: 5/8)
-9.000000000000000e-001	-1.068952e-004
-8.640000000000000e-001	-1.006778e-004
-8.280000000000000e-001	-9.454149e-005
-7.919999999999999e-001	-8.849709e-005
-7.559999999999999e-001	-8.255520e-005
-7.199999999999999e-001	-7.672609e-005
-6.839999999999998e-001	-7.101979e-005
-6.479999999999998e-001	-6.544622e-005
-6.119999999999998e-001	-6.001513e-005
-5.759999999999997e-001	-5.473617e-005
-5.399999999999997e-001	-4.961889e-005
-5.039999999999997e-001	-4.467272e-005
-4.679999999999997e-001	-3.990702e-005
-4.319999999999997e-001	-3.533112e-005
-3.959999999999997e-001	-3.095442e-005
-3.599999999999998e-001	-2.678673e-005
-3.239999999999998e-001	-2.283873e-005
-2.879999999999998e-001	-1.912296e-005
-2.519999999999998e-001	-1.565512e-005
-2.159999999999998e-001	-1.245588e-005
-1.799999999999998e-001	-9.552261e-006
-1.439999999999998e-001	-6.976788e-006
-1.079999999999998e-001	-4.760054e-006
-7.199999999999981e-002	-2.910026e-006
-3.599999999999982e-002	-1.374149e-006
1.804112415015879e-016	-2.273737e-013
3.600000000000018e-002	1.457756e-006
7.200000000000018e-002	3.251982e-006
1.080000000000002e-001	5.536713e-006
1.440000000000002e-001	8.333473e-006
1.800000000000002e-001	1.157736e-005
2.160000000000002e-001	1.517918e-005
2.520000000000002e-001	1.906134e-005
2.880000000000001e-001	2.316738e-005
3.240000000000001e-001	2.745887e-005
3.600000000000001e-001	3.190937e-005
3.960000000000001e-001	3.649942e-005
4.320000000000001e-001	4.121332e-005
4.680000000000000e-001	4.603731e-005
5.040000000000000e-001	5.095868e-005
5.400000000000000e-001	5.596545e-005
5.760000000000001e-001	6.104625e-005
6.120000000000001e-001	6.619032e-005
6.480000000000001e-001	7.138753e-005
6.840000000000002e-001	7.662847e-005
7.200000000000002e-001	8.190440e-005
7.560000000000002e-001	8.720726e-005
7.920000000000003e-001	9.252967e-005
8.280000000000003e-001	9.786490e-005
8.640000000000003e-001	1.032068e-004
9.000000000000000e-001	1.085497e-004
Step Information: Iq=2u  (Run: 6/8)
-9.000000000000000e-001	-1.140759e-004
-8.640000000000000e-001	-1.077803e-004
-8.280000000000000e-001	-1.015524e-004
-7.919999999999999e-001	-9.540392e-005
-7.559999999999999e-001	-8.934586e-005
-7.199999999999999e-001	-8.338885e-005
-6.839999999999998e-001	-7.754317e-005
-6.479999999999998e-001	-7.181890e-005
-6.119999999999998e-001	-6.622597e-005
-5.759999999999997e-001	-6.077414e-005
-5.399999999999997e-001	-5.547308e-005
-5.039999999999997e-001	-5.033236e-005
-4.679999999999997e-001	-4.536141e-005
-4.319999999999997e-001	-4.056960e-005
-3.959999999999997e-001	-3.596621e-005
-3.599999999999998e-001	-3.156057e-005
-3.239999999999998e-001	-2.736218e-005
-2.879999999999998e-001	-2.338108e-005
-2.519999999999998e-001	-1.962823e-005
-2.159999999999998e-001	-1.611588e-005
-1.799999999999998e-001	-1.285715e-005
-1.439999999999998e-001	-9.863380e-006
-1.079999999999998e-001	-7.135619e-006
-7.199999999999981e-002	-4.646048e-006
-3.599999999999982e-002	-2.313757e-006
1.804112415015879e-016	-4.547474e-013
3.600000000000018e-002	2.454710e-006
7.200000000000018e-002	5.175299e-006
1.080000000000002e-001	8.222344e-006
1.440000000000002e-001	1.159700e-005
1.800000000000002e-001	1.526466e-005
2.160000000000002e-001	1.918043e-005
2.520000000000002e-001	2.330459e-005
2.880000000000001e-001	2.760681e-005
3.240000000000001e-001	3.206449e-005
3.600000000000001e-001	3.665993e-005
3.960000000000001e-001	4.137821e-005
4.320000000000001e-001	4.620590e-005
4.680000000000000e-001	5.113048e-005
5.040000000000000e-001	5.614002e-005
5.400000000000000e-001	6.122320e-005
5.760000000000001e-001	6.636927e-005
6.120000000000001e-001	7.156816e-005
6.480000000000001e-001	7.681045e-005
6.840000000000002e-001	8.208743e-005
7.200000000000002e-001	8.739109e-005
7.560000000000002e-001	9.271406e-005
7.920000000000003e-001	9.804961e-005
8.280000000000003e-001	1.033916e-004
8.640000000000003e-001	1.087345e-004
9.000000000000000e-001	1.140731e-004
Step Information: Iq=5u  (Run: 7/8)
-9.000000000000000e-001	-1.263978e-004
-8.640000000000000e-001	-1.200071e-004
-8.280000000000000e-001	-1.136593e-004
-7.919999999999999e-001	-1.073677e-004
-7.559999999999999e-001	-1.011447e-004
-7.199999999999999e-001	-9.500189e-005
-6.839999999999998e-001	-8.895017e-005
-6.479999999999998e-001	-8.300017e-005
-6.119999999999998e-001	-7.716218e-005
-5.759999999999997e-001	-7.144627e-005
-5.399999999999997e-001	-6.586232e-005
-5.039999999999997e-001	-6.042011e-005
-4.679999999999997e-001	-5.512926e-005
-4.319999999999997e-001	-4.999926e-005
-3.959999999999997e-001	-4.503940e-005
-3.599999999999998e-001	-4.025861e-005
-3.239999999999998e-001	-3.566515e-005
-2.879999999999998e-001	-3.126579e-005
-2.519999999999998e-001	-2.706417e-005
-2.159999999999998e-001	-2.305706e-005
-1.799999999999998e-001	-1.922686e-005
-1.439999999999998e-001	-1.552795e-005
-1.079999999999998e-001	-1.187102e-005
-7.199999999999981e-002	-8.127984e-006
-3.599999999999982e-002	-4.182507e-006
1.804112415015879e-016	-4.547474e-013
3.600000000000018e-002	4.352603e-006
7.200000000000018e-002	8.760042e-006
1.080000000000002e-001	1.313598e-005
1.440000000000002e-001	1.746543e-005
1.800000000000002e-001	2.179128e-005
2.160000000000002e-001	2.617056e-005
2.520000000000002e-001	3.064281e-005
2.880000000000001e-001	3.522503e-005
3.240000000000001e-001	3.991932e-005
3.600000000000001e-001	4.472020e-005
3.960000000000001e-001	4.961872e-005
4.320000000000001e-001	5.460450e-005
4.680000000000000e-001	5.966676e-005
5.040000000000000e-001	6.479491e-005
5.400000000000000e-001	6.997879e-005
5.760000000000001e-001	7.520884e-005
6.120000000000001e-001	8.047614e-005
6.480000000000001e-001	8.577248e-005
6.840000000000002e-001	9.109031e-005
7.200000000000002e-001	9.642270e-005
7.560000000000002e-001	1.017634e-004
7.920000000000003e-001	1.071065e-004
8.280000000000003e-001	1.124470e-004
8.640000000000003e-001	1.177799e-004
9.000000000000000e-001	1.231010e-004
Step Information: Iq=10u  (Run: 8/8)
-9.000000000000000e-001	-1.397701e-004
-8.640000000000000e-001	-1.333389e-004
-8.280000000000000e-001	-1.269183e-004
-7.919999999999999e-001	-1.205247e-004
-7.559999999999999e-001	-1.141729e-004
-7.199999999999999e-001	-1.078764e-004
-6.839999999999998e-001	-1.016474e-004
-6.479999999999998e-001	-9.549758e-005
-6.119999999999998e-001	-8.943805e-005
-5.759999999999997e-001	-8.347939e-005
-5.399999999999997e-001	-7.763187e-005
-5.039999999999997e-001	-7.190553e-005
-4.679999999999997e-001	-6.631014e-005
-4.319999999999997e-001	-6.085515e-005
-3.959999999999997e-001	-5.554931e-005
-3.599999999999998e-001	-5.040002e-005
-3.239999999999998e-001	-4.541157e-005
-2.879999999999998e-001	-4.058158e-005
-2.519999999999998e-001	-3.589364e-005
-2.159999999999998e-001	-3.130377e-005
-1.799999999999998e-001	-2.672226e-005
-1.439999999999998e-001	-2.200944e-005
-1.079999999999998e-001	-1.701532e-005
-7.199999999999981e-002	-1.165320e-005
-3.599999999999982e-002	-5.944637e-006
1.804112415015879e-016	-9.094947e-013
3.600000000000018e-002	6.032751e-006
7.200000000000018e-002	1.200893e-005
1.080000000000002e-001	1.780991e-005
1.440000000000002e-001	2.336059e-005
1.800000000000002e-001	2.864682e-005
2.160000000000002e-001	3.371954e-005
2.520000000000002e-001	3.866995e-005
2.880000000000001e-001	4.358717e-005
3.240000000000001e-001	4.853047e-005
3.600000000000001e-001	5.352799e-005
3.960000000000001e-001	5.858799e-005
4.320000000000001e-001	6.370874e-005
4.680000000000000e-001	6.888408e-005
5.040000000000000e-001	7.410616e-005
5.400000000000000e-001	7.936674e-005
5.760000000000001e-001	8.465779e-005
6.120000000000001e-001	8.997176e-005
6.480000000000001e-001	9.530167e-005
6.840000000000002e-001	1.006411e-004
7.200000000000002e-001	1.059842e-004
7.560000000000002e-001	1.113256e-004
7.920000000000003e-001	1.166605e-004
8.280000000000003e-001	1.219844e-004
8.640000000000003e-001	1.272933e-004
9.000000000000000e-001	1.325834e-004
